"Latest: Time (s)","Latest: Radiation (Counts)"
5,5
10,8
15,10
20,5
25,13
30,11
35,5
40,6
45,5
50,7
55,5
60,6
65,5
70,9
75,8
80,13
85,5
90,3
95,9
100,11
105,2
110,6
115,12
120,2
125,2
130,2
135,9
140,8
145,5
150,9
155,10
160,2
165,6
170,5
175,6
180,6
