"Latest: Time (s)","Latest: Radiation (Counts)"
5,30
10,24
15,28
20,25
25,31
30,21
35,38
40,28
45,33
50,41
55,33
60,37
65,37
70,32
75,29
80,30
85,19
90,33
95,26
100,26
105,29
110,31
115,32
120,45
125,31
130,29
135,39
140,33
145,31
150,30
155,32
160,41
165,23
170,25
175,25
180,32
