"Latest: Time (s)","Latest: Radiation (Counts)"
5,3
10,5
15,2
20,2
25,2
30,3
35,2
40,3
45,4
50,4
55,3
60,4
65,4
70,2
75,5
80,4
85,5
90,0
95,2
100,1
105,8
110,6
115,3
120,2
125,6
130,4
135,8
140,0
145,4
150,2
155,1
160,6
165,2
170,2
175,5
180,2
